s,C,kg/m2/s,kW/m2,kW/m2,kW/m2,C,kW/m3,kW/m3,kW/m2
Time,"temp","burn","rad","gauge","con","gas","hrrpuv","qr","U"
 0.0000000E+000, 2.0000000E+001, 0.0000000E+000,-1.0144064E-004,-4.5084744E-003, 0.0000000E+000, 2.0000000E+001, 0.0000000E+000,-2.0085115E-003, 1.6401572E+000
 6.1237244E-001, 1.8479656E+001, 2.4057996E-020, 4.4368088E-002,-8.8272683E-002, 1.7772581E-003, 2.0097746E+001, 0.0000000E+000, 1.7815035E-002, 1.9869088E+000
 1.2247449E+000, 2.0774725E+001, 2.8749809E-020, 4.4023633E-001, 5.0087243E-001, 9.7122025E-003, 2.4968094E+001, 0.0000000E+000, 1.3075428E-001, 4.0659080E+000
 1.8371173E+000, 2.8136505E+001, 2.9458816E-020, 1.3424606E+000, 1.6560138E+000, 9.5090143E-002, 5.3405449E+001, 0.0000000E+000, 3.8212433E-001, 9.6535721E+000
 2.4494897E+000, 3.9828163E+001, 3.7523097E-020, 2.3836286E+000, 2.8899159E+000, 6.7770332E-002, 5.4002182E+001, 0.0000000E+000, 7.2939736E-001, 1.5968564E+001
 3.0255271E+000, 5.3459770E+001, 1.5155594E-019, 3.2261648E+000, 3.9057221E+000, 2.0766215E-002, 6.0020931E+001, 0.0000000E+000, 9.9685234E-001, 2.1449171E+001
 3.6524896E+000, 6.7218582E+001, 2.1458097E-018, 3.5310035E+000, 4.4447317E+000, 4.4872075E-002, 7.9420799E+001, 6.7416472E-006, 1.0985758E+000, 2.4315189E+001
 4.2010818E+000, 7.8094566E+001, 2.0847789E-017, 3.6449120E+000, 4.5999675E+000,-2.0586972E-003, 7.5477974E+001, 7.8197062E-004, 1.1891780E+000, 2.5876057E+001
 4.8197356E+000, 8.6991982E+001, 1.4043974E-016, 3.6627469E+000, 4.7531934E+000,-7.2049633E-002, 6.5637566E+001, 2.6066195E-002, 1.2561278E+000, 2.6767887E+001
 5.4178967E+000, 9.6090721E+001, 8.1280879E-016, 3.6902668E+000, 4.8951645E+000,-2.3402050E-002, 8.6993027E+001, 4.6528226E-001,-1.7653973E+000, 2.7697140E+001
 6.0660324E+000, 1.0496478E+002, 3.6845916E-015, 3.7450204E+000, 5.1144824E+000,-8.2285337E-002, 8.1272675E+001, 3.8475413E+000,-6.7299905E+000, 2.8763859E+001
 6.6658367E+000, 1.1459286E+002, 1.0083783E-014, 3.8592713E+000, 5.3808107E+000,-4.8399787E-002, 9.9816940E+001, 1.5870325E+001,-1.7422077E+001, 3.0041981E+001
 7.2472144E+000, 1.2447345E+002, 4.4597186E-014, 4.1014466E+000, 5.7895756E+000,-1.0119587E-003, 1.2457113E+002, 4.3266369E+001,-3.6314705E+001, 3.1918484E+001
 7.8534861E+000, 1.3615764E+002, 2.3074731E-013, 4.4844832E+000, 6.4400735E+000, 1.4397675E-002, 1.4095102E+002, 7.3947952E+001,-4.9972038E+001, 3.4620903E+001
 8.4255240E+000, 1.4794543E+002, 1.1604101E-012, 4.7334285E+000, 6.9384971E+000, 1.3626116E-002, 1.5234923E+002, 9.5982643E+001,-5.8467300E+001, 3.6965271E+001
 9.0150869E+000, 1.5971901E+002, 5.7396366E-012, 4.9478688E+000, 7.5833998E+000, 5.9469491E-002, 1.7578497E+002, 1.3427875E+002,-7.6720604E+001, 3.9191582E+001
 9.6169868E+000, 1.7102034E+002, 2.6192968E-011, 5.0120101E+000, 7.8427939E+000, 4.0010519E-002, 1.8373534E+002, 1.4878064E+002,-7.7524345E+001, 4.0595467E+001
 1.0237394E+001, 1.8209959E+002, 1.1171334E-010, 5.1010742E+000, 8.2701674E+000, 6.1896238E-002, 1.9812891E+002, 1.9905728E+002,-9.5482582E+001, 4.2177650E+001
 1.0837812E+001, 1.9177754E+002, 4.0196277E-010, 4.9763298E+000, 8.2931147E+000, 3.6276475E-002, 2.0330847E+002, 2.1048341E+002,-9.5264534E+001, 4.2772434E+001
 1.1430600E+001, 2.0059433E+002, 1.2366084E-009, 4.9672585E+000, 8.3935213E+000, 4.5778458E-003, 2.0139377E+002, 2.1970787E+002,-9.5662880E+001, 4.3753239E+001
 1.2005801E+001, 2.0769485E+002, 3.2391110E-009, 4.7425699E+000, 8.3098564E+000,-9.3668280E-003, 2.0347549E+002, 2.0924243E+002,-9.4237244E+001, 4.3648842E+001
 1.2637285E+001, 2.1443552E+002, 7.6731750E-009, 4.6177955E+000, 8.4170456E+000,-2.9011829E-002, 2.0419957E+002, 1.8068803E+002,-9.1752357E+001, 4.3968212E+001
 1.3231637E+001, 2.2108278E+002, 1.6865032E-008, 4.5392432E+000, 8.5595551E+000,-3.9178953E-002, 2.0793286E+002, 2.0409132E+002,-9.9171646E+001, 4.4486782E+001
 1.3831209E+001, 2.2782846E+002, 3.5068375E-008, 4.4921613E+000, 8.6473551E+000,-2.0796666E-002, 2.1976201E+002, 2.3787434E+002,-1.0750178E+002, 4.5187294E+001
 1.4401568E+001, 2.3441620E+002, 7.0210007E-008, 4.4904122E+000, 8.9180498E+000,-3.5936005E-002, 2.2212646E+002, 2.1829443E+002,-1.1148797E+002, 4.6138992E+001
 1.5008105E+001, 2.4034709E+002, 1.3588475E-007, 4.3854680E+000, 9.0308208E+000,-4.7058098E-002, 2.2519753E+002, 2.6776819E+002,-1.1567346E+002, 4.6549610E+001
 1.5618340E+001, 2.4578819E+002, 2.4803299E-007, 4.2604432E+000, 9.1012058E+000,-5.3926796E-002, 2.2958939E+002, 2.5350958E+002,-1.1692561E+002, 4.6762680E+001
 1.6228575E+001, 2.5140015E+002, 4.3503115E-007, 4.2564363E+000, 9.3438816E+000,-7.5068630E-002, 2.3011072E+002, 3.0106686E+002,-1.2623636E+002, 4.7630157E+001
 1.6838810E+001, 2.5684409E+002, 7.4728354E-007, 4.1859365E+000, 9.4560642E+000,-6.9317572E-002, 2.3694524E+002, 3.8532016E+002,-1.3600822E+002, 4.8151951E+001
 1.7425771E+001, 2.6183575E+002, 1.2396264E-006, 4.1243787E+000, 9.6413727E+000,-1.0544188E-001, 2.3467345E+002, 4.0965222E+002,-1.3579933E+002, 4.8697304E+001
 1.8033448E+001, 2.6591498E+002, 1.9313634E-006, 3.9871633E+000, 9.6711636E+000,-1.2545350E-001, 2.3495570E+002, 4.1293057E+002,-1.3523108E+002, 4.8755581E+001
 1.8603146E+001, 2.6957587E+002, 2.8376062E-006, 3.8832219E+000, 9.7098055E+000,-1.3419722E-001, 2.3719295E+002, 4.1850482E+002,-1.3955260E+002, 4.8889194E+001
 1.9210823E+001, 2.7328296E+002, 4.0634441E-006, 3.8094857E+000, 9.7896852E+000,-1.4409608E-001, 2.3904013E+002, 4.2298920E+002,-1.4106264E+002, 4.9201862E+001
 1.9837490E+001, 2.7670859E+002, 5.7703928E-006, 3.7101176E+000, 9.8368225E+000,-1.6314986E-001, 2.3914745E+002, 4.2326895E+002,-1.4102078E+002, 4.9359573E+001
 2.0409582E+001, 2.7942273E+002, 7.8202465E-006, 3.5843790E+000, 9.8335752E+000,-1.9077516E-001, 2.3732768E+002, 4.2230887E+002,-1.3840749E+002, 4.9306400E+001
 2.1031714E+001, 2.8225079E+002, 1.0245727E-005, 3.5346506E+000, 9.8992701E+000,-1.9518873E-001, 2.3939056E+002, 4.2925137E+002,-1.4146906E+002, 4.9592625E+001
 2.1618509E+001, 2.8518704E+002, 1.3391746E-005, 3.4920149E+000, 9.9815788E+000,-1.9459236E-001, 2.4247685E+002, 4.3747784E+002,-1.4656474E+002, 4.9950382E+001
 2.2205304E+001, 2.8825015E+002, 1.7316561E-005, 3.4781141E+000, 1.0098704E+001,-1.9086176E-001, 2.4619582E+002, 4.4635477E+002,-1.5240894E+002, 5.0475689E+001
 2.2828773E+001, 2.9120374E+002, 2.2472528E-005, 3.4359453E+000, 1.0190115E+001,-1.9866009E-001, 2.4792688E+002, 4.5313773E+002,-1.5404308E+002, 5.0875568E+001
 2.3415568E+001, 2.9397324E+002, 2.8624752E-005, 3.4096289E+000, 1.0294091E+001,-2.0990917E-001, 2.4869893E+002, 4.5867496E+002,-1.5732875E+002, 5.1288853E+001
 2.4002363E+001, 2.9640256E+002, 3.5678957E-005, 3.3476753E+000, 1.0335889E+001,-2.0536244E-001, 2.5195381E+002, 4.6619092E+002,-1.6126561E+002, 5.1503826E+001
 2.4625833E+001, 2.9879056E+002, 4.4046905E-005, 3.3047025E+000, 1.0405412E+001,-2.1295071E-001, 2.5324635E+002, 4.7086658E+002,-1.6194032E+002, 5.1794090E+001
 2.5212628E+001, 3.0112057E+002, 5.3566419E-005, 3.2795539E+000, 1.0478757E+001,-2.0210078E-001, 2.5723422E+002, 4.7928757E+002,-1.6791830E+002, 5.2147076E+001
 2.5836097E+001, 3.0367407E+002, 6.5087828E-005, 3.2788854E+000, 1.0590824E+001,-1.8759018E-001, 2.6231140E+002, 4.9109589E+002,-1.7387541E+002, 5.2679829E+001
 2.6422892E+001, 3.0648883E+002, 7.9359786E-005, 3.3066931E+000, 1.0742685E+001,-1.6910179E-001, 2.6816992E+002, 5.0384869E+002,-1.8026962E+002, 5.3393703E+001
 2.7009687E+001, 3.0910593E+002, 9.6178926E-005, 3.3125138E+000, 1.0865149E+001,-1.5587664E-001, 2.7291479E+002, 5.1461481E+002,-1.8634573E+002, 5.3998005E+001
 2.7633157E+001, 3.1136359E+002, 1.1572204E-004, 3.2923222E+000, 1.0972298E+001,-1.7458268E-001, 2.7167188E+002, 4.9902716E+002,-1.8118497E+002, 5.4464664E+001
 2.8219952E+001, 3.1157837E+002, 1.3226057E-004, 3.0382564E+000, 1.0730150E+001,-2.0669964E-001, 2.6756552E+002, 4.7483920E+002,-1.7060698E+002, 5.3495468E+001
 2.8806747E+001, 3.1225546E+002, 1.4367655E-004, 3.0296342E+000, 1.0778231E+001,-2.6059070E-001, 2.5916367E+002, 4.3916675E+002,-1.5959532E+002, 5.3683720E+001
 2.9430216E+001, 3.1153531E+002, 1.5033506E-004, 2.8478706E+000, 1.0543324E+001,-2.5694293E-001, 2.5912534E+002, 4.6502399E+002,-1.6392020E+002, 5.2776299E+001
 3.0017011E+001, 3.1247955E+002, 1.5817156E-004, 2.9201312E+000, 1.0677069E+001,-2.7645880E-001, 2.5709286E+002, 4.6992035E+002,-1.6326680E+002, 5.3318260E+001
 3.0603806E+001, 3.1333832E+002, 1.6863087E-004, 2.9278290E+000, 1.0723381E+001,-2.6498023E-001, 2.5964484E+002, 4.7638748E+002,-1.6837346E+002, 5.3521255E+001
 3.1227276E+001, 3.1430548E+002, 1.8121213E-004, 2.9242287E+000, 1.0768689E+001,-2.6170963E-001, 2.6117889E+002, 4.8224100E+002,-1.6908904E+002, 5.3715450E+001
 3.1814070E+001, 3.1508160E+002, 1.9380973E-004, 2.9136775E+000, 1.0798921E+001,-2.6798606E-001, 2.6100357E+002, 4.8652866E+002,-1.6810117E+002, 5.3846561E+001
 3.2400865E+001, 3.1596094E+002, 2.0592712E-004, 2.9304109E+000, 1.0856572E+001,-2.5546378E-001, 2.6368317E+002, 4.9396118E+002,-1.7266812E+002, 5.4134140E+001
 3.3024335E+001, 3.1681866E+002, 2.1985317E-004, 2.9266133E+000, 1.0896669E+001,-2.5424665E-001, 2.6480377E+002, 4.9862009E+002,-1.7514323E+002, 5.4300907E+001
 3.3611130E+001, 3.1756888E+002, 2.3367007E-004, 2.9249356E+000, 1.0939907E+001,-2.6638860E-001, 2.6358176E+002, 4.9805356E+002,-1.7470479E+002, 5.4459824E+001
 3.4234600E+001, 3.1715741E+002, 2.4298140E-004, 2.7966142E+000, 1.0794917E+001,-3.1049061E-001, 2.5659576E+002, 4.8547464E+002,-1.6389577E+002, 5.3805939E+001
 3.4821394E+001, 3.1611499E+002, 2.4233013E-004, 2.6785641E+000, 1.0615114E+001,-3.4261060E-001, 2.5127353E+002, 4.7862222E+002,-1.5547884E+002, 5.3053955E+001
 3.5408189E+001, 3.1625009E+002, 2.4088981E-004, 2.7255647E+000, 1.0658742E+001,-2.9997432E-001, 2.5732956E+002, 4.8808569E+002,-1.6481810E+002, 5.3251816E+001
 3.6031659E+001, 3.1667114E+002, 2.4724740E-004, 2.7264202E+000, 1.0688259E+001,-3.1207618E-001, 2.5608157E+002, 4.9022754E+002,-1.6162268E+002, 5.3378811E+001
 3.6618454E+001, 3.1663516E+002, 2.5153835E-004, 2.7065821E+000, 1.0664805E+001,-3.2067591E-001, 2.5471599E+002, 4.9160678E+002,-1.6235294E+002, 5.3283703E+001
 3.7205249E+001, 3.1708398E+002, 2.5655690E-004, 2.7400343E+000, 1.0721952E+001,-3.1001031E-001, 2.5667004E+002, 4.9583463E+002,-1.6483917E+002, 5.3553905E+001
 3.7828718E+001, 3.1723630E+002, 2.6345442E-004, 2.7240868E+000, 1.0720855E+001,-3.4119639E-001, 2.5229849E+002, 4.9453214E+002,-1.5903778E+002, 5.3563293E+001
 3.8435629E+001, 3.1727930E+002, 2.6715215E-004, 2.7035954E+000, 1.0694786E+001,-3.2513690E-001, 2.5495265E+002, 4.9883011E+002,-1.6037302E+002, 5.3501633E+001
 3.9009724E+001, 3.1831003E+002, 2.7487290E-004, 2.8145928E+000, 1.0861691E+001,-2.9733801E-001, 2.5978711E+002, 5.1480341E+002,-1.7139166E+002, 5.4220512E+001
 3.9619700E+001, 3.1953989E+002, 2.9063720E-004, 2.8629248E+000, 1.0980022E+001,-2.9047006E-001, 2.6211176E+002, 5.2880701E+002,-1.7273573E+002, 5.4737312E+001
 4.0229675E+001, 3.2004810E+002, 3.0499767E-004, 2.8434474E+000, 1.0989447E+001,-2.9884785E-001, 2.6124951E+002, 5.2977362E+002,-1.7122639E+002, 5.4788727E+001
 4.0803770E+001, 3.2011926E+002, 3.1425644E-004, 2.8115206E+000, 1.0964517E+001,-3.2063064E-001, 2.5818918E+002, 5.3302606E+002,-1.6835095E+002, 5.4681347E+001
 4.1413746E+001, 3.2031339E+002, 3.2024100E-004, 2.8163979E+000, 1.0977387E+001,-3.1681588E-001, 2.5897913E+002, 5.3898877E+002,-1.6939359E+002, 5.4765404E+001
 4.2023721E+001, 3.2117340E+002, 3.2981980E-004, 2.8939064E+000, 1.1099344E+001,-2.9397690E-001, 2.6338086E+002, 5.5454669E+002,-1.7733206E+002, 5.5335949E+001
 4.2633697E+001, 3.2340280E+002, 3.5124994E-004, 3.0844529E+000, 1.1388784E+001,-2.2262399E-001, 2.7656976E+002, 5.8478064E+002,-1.9699973E+002, 5.6697403E+001
 4.3207792E+001, 3.2633594E+002, 3.9079055E-004, 3.2627921E+000, 1.1713786E+001,-1.8296857E-001, 2.8538928E+002, 5.6334979E+002,-2.0635324E+002, 5.8196045E+001
 4.3817767E+001, 3.2728018E+002, 4.2960540E-004, 3.1358280E+000, 1.1574080E+001,-1.5438171E-001, 2.9249393E+002, 5.9354248E+002,-2.1434215E+002, 5.7705807E+001
 4.4427743E+001, 3.2656818E+002, 4.4164879E-004, 2.9654603E+000, 1.1334516E+001,-1.4662737E-001, 2.9303583E+002, 5.9041095E+002,-2.1047871E+002, 5.6709644E+001
 4.5018564E+001, 3.3542444E+002, 4.9446255E-004, 4.3794980E+000, 1.3426119E+001, 5.3145587E-002, 3.4347787E+002, 6.9742120E+002,-2.8731857E+002, 6.5867165E+001
 4.5627514E+001, 3.4818411E+002, 7.4599881E-004, 5.4252496E+000, 1.5512503E+001, 1.4703543E-001, 3.8197226E+002, 8.2257465E+002,-3.6594019E+002, 7.4575920E+001
 4.6210172E+001, 3.6796362E+002, 1.2449931E-003, 7.7363353E+000, 1.9790617E+001, 3.5022190E-001, 4.3054230E+002, 1.2005629E+003,-5.2560651E+002, 9.1586967E+001
 4.6814204E+001, 3.7492593E+002, 1.8184695E-003, 7.8231664E+000, 2.0366913E+001, 2.9562998E-001, 4.3303677E+002, 1.3636211E+003,-5.3416522E+002, 9.5506615E+001
 4.7418235E+001, 3.7816110E+002, 2.0666886E-003, 8.1970549E+000, 2.1140259E+001, 3.6051801E-001, 4.4595776E+002, 1.4256228E+003,-5.6707880E+002, 9.8334045E+001
 4.8022267E+001, 3.8805670E+002, 2.4417345E-003, 9.7462969E+000, 2.4058245E+001, 6.1819345E-001, 4.8936703E+002, 1.6931305E+003,-7.0359192E+002, 1.0830210E+002
 4.8622017E+001, 4.1676498E+002, 3.5852739E-003, 1.4798120E+001, 3.2566257E+001, 1.1118975E+000, 5.6666205E+002, 2.5091807E+003,-1.1386512E+003, 1.4052437E+002
 4.9217880E+001, 4.2216220E+002, 4.7576153E-003, 1.4103272E+001, 3.2623535E+001, 1.1643876E+000, 5.8647107E+002, 2.1231362E+003,-9.4865509E+002, 1.4295966E+002
 4.9816508E+001, 4.4660880E+002, 5.7089105E-003, 1.9900967E+001, 4.1734306E+001, 1.6580299E+000, 6.5672125E+002, 3.1523586E+003,-1.4990637E+003, 1.7673251E+002
 5.0406358E+001, 4.3534222E+002, 6.0449243E-003, 1.7133070E+001, 3.7645451E+001, 1.4452338E+000, 6.2793024E+002, 2.6452114E+003,-1.2473832E+003, 1.6340144E+002
 5.1000720E+001, 4.4018079E+002, 6.4313938E-003, 1.8518957E+001, 3.9405254E+001, 1.3520899E+000, 6.1767603E+002, 2.3370542E+003,-1.1541321E+003, 1.7095943E+002
 5.1608142E+001, 4.1639511E+002, 4.7303406E-003, 1.5139202E+001, 3.3463448E+001, 1.3606232E+000, 5.9824255E+002, 2.2359568E+003,-1.0979458E+003, 1.4429988E+002
 5.2208607E+001, 4.3549640E+002, 5.8750873E-003, 1.9587978E+001, 4.0565865E+001, 1.7866633E+000, 6.5830017E+002, 3.4123281E+003,-1.5797271E+003, 1.7144664E+002
 5.2817525E+001, 4.5816788E+002, 8.5414583E-003, 2.3850098E+001, 4.6781982E+001, 1.3248843E+000, 6.1710687E+002, 2.6938711E+003,-1.2408812E+003, 2.0577147E+002
 5.3420793E+001, 4.0292395E+002, 4.4785319E-003, 1.3202420E+001, 3.0461552E+001, 1.4860369E+000, 6.0033594E+002, 2.3075840E+003,-9.8132379E+002, 1.3296284E+002
 5.4001202E+001, 4.3723703E+002, 6.6488874E-003, 2.1562254E+001, 4.3428715E+001, 2.1596584E+000, 6.8762189E+002, 3.4276575E+003,-1.5377280E+003, 1.8199014E+002
 5.4614126E+001, 4.2849359E+002, 6.7428024E-003, 1.9422770E+001, 3.9644375E+001, 1.5920796E+000, 6.2983856E+002, 3.2698362E+003,-1.1230040E+003, 1.7297729E+002
 5.5218265E+001, 4.2027408E+002, 6.2308111E-003, 1.8054018E+001, 3.7721214E+001, 1.7757351E+000, 6.4323657E+002, 2.2449817E+003,-1.0568638E+003, 1.6511935E+002
 5.5808809E+001, 4.0547604E+002, 5.3776801E-003, 1.5052730E+001, 3.1976883E+001, 9.5247674E-001, 5.4404761E+002, 1.8288005E+003,-7.7507550E+002, 1.4529868E+002
 5.6411478E+001, 3.9714462E+002, 4.5437021E-003, 1.3972468E+001, 2.9847237E+001, 8.2296669E-001, 5.2215723E+002, 1.7980865E+003,-7.2632910E+002, 1.3667909E+002
 5.7000261E+001, 4.2735147E+002, 6.7134611E-003, 2.3408770E+001, 4.4292564E+001, 1.9504578E+000, 6.6245154E+002, 3.0750762E+003,-1.4007769E+003, 1.9221796E+002
 5.7611148E+001, 4.4404153E+002, 9.5140822E-003, 2.7124226E+001, 5.2088825E+001, 3.4321671E+000, 8.1055548E+002, 3.3883403E+003,-1.8307113E+003, 2.1784645E+002
 5.8213208E+001, 4.4262219E+002, 1.0586377E-002, 2.8531986E+001, 5.2732559E+001, 2.6922903E+000, 7.4224103E+002, 3.5346287E+003,-1.5492014E+003, 2.2342291E+002
 5.8815845E+001, 4.2596848E+002, 8.6510386E-003, 2.5974983E+001, 4.7498768E+001, 2.1575956E+000, 6.8258160E+002, 3.3963591E+003,-1.4854274E+003, 2.0521384E+002
 5.9417619E+001, 4.1616904E+002, 8.0700312E-003, 2.2657919E+001, 4.2810467E+001, 1.9746208E+000, 6.5800909E+002, 2.4558337E+003,-1.0095499E+003, 1.9067693E+002
 6.0011807E+001, 4.0226575E+002, 6.5088021E-003, 1.8025812E+001, 3.6390575E+001, 1.8647410E+000, 6.3474237E+002, 1.8011545E+003,-8.3889740E+002, 1.6378975E+002
 6.0619099E+001, 4.1674210E+002, 8.3726756E-003, 2.5802008E+001, 4.7670422E+001, 3.0632579E+000, 7.5212250E+002, 3.3850647E+003,-1.6789386E+003, 2.0040005E+002
 6.1204422E+001, 4.2362262E+002, 1.2438567E-002, 3.3253696E+001, 5.6991875E+001, 3.4166749E+000, 7.8761450E+002, 4.0006792E+003,-1.8270533E+003, 2.3891132E+002
 6.1812190E+001, 4.9034872E+002, 8.5527916E-003, 2.7981447E+001, 5.6145550E+001, 2.1559808E+000, 7.4594641E+002, 3.6195156E+003,-1.9706886E+003, 2.4118182E+002
 6.2404330E+001, 5.0865536E+002, 9.7599979E-003, 2.7728149E+001, 5.8926472E+001, 2.9149570E+000, 8.3283405E+002, 4.0369624E+003,-1.9428248E+003, 2.5207024E+002
 6.3011750E+001, 4.5884506E+002, 7.6884734E-003, 1.9543211E+001, 4.2910446E+001, 1.5807321E+000, 6.6139734E+002, 2.4836543E+003,-1.0614988E+003, 1.9205376E+002
 6.3610794E+001, 4.6243906E+002, 6.9776378E-003, 2.3273918E+001, 4.7596363E+001, 2.1310830E+000, 7.1681250E+002, 3.5181089E+003,-1.8470927E+003, 2.0224529E+002
 6.4218710E+001, 4.9040643E+002, 9.9849300E-003, 2.8053194E+001, 5.6780315E+001, 2.6028743E+000, 7.8812408E+002, 3.8929541E+003,-1.8645057E+003, 2.4338516E+002
 6.4809185E+001, 4.7492090E+002, 9.7395359E-003, 2.5787577E+001, 5.2355499E+001, 2.2908273E+000, 7.4090771E+002, 3.0052896E+003,-1.4947571E+003, 2.2673781E+002
 6.5400217E+001, 4.5488788E+002, 7.8692948E-003, 2.4202578E+001, 4.8577000E+001, 2.5499918E+000, 7.4746484E+002, 3.4705005E+003,-1.8592446E+003, 2.0511362E+002
 6.6007627E+001, 4.8771402E+002, 1.1695041E-002, 3.2418186E+001, 6.2082401E+001, 3.1474493E+000, 8.2902808E+002, 4.1049023E+003,-2.0582192E+003, 2.6108670E+002
 6.6607510E+001, 4.5283539E+002, 9.5854253E-003, 2.5130800E+001, 4.9511227E+001, 2.3901181E+000, 7.3211865E+002, 3.1394133E+003,-1.5230690E+003, 2.1480035E+002
 6.7218044E+001, 4.5193872E+002, 9.5999669E-003, 2.7100504E+001, 5.2224369E+001, 3.0031958E+000, 7.8348486E+002, 3.5355774E+003,-1.8392607E+003, 2.1801164E+002
 6.7815903E+001, 4.4297839E+002, 9.6622445E-003, 2.6303806E+001, 4.9343964E+001, 2.0678146E+000, 6.9140417E+002, 3.3674548E+003,-1.6247255E+003, 2.1172098E+002
 6.8409589E+001, 4.4479480E+002, 1.0319415E-002, 2.9305912E+001, 5.3371567E+001, 2.5331979E+000, 7.3635382E+002, 3.7137087E+003,-1.8693451E+003, 2.2680153E+002
 6.9003991E+001, 4.3388763E+002, 1.0179969E-002, 2.6547005E+001, 4.9136051E+001, 2.2806392E+000, 7.0136316E+002, 2.7805137E+003,-1.4237595E+003, 2.1178343E+002
 6.9611027E+001, 4.1897833E+002, 8.4292321E-003, 2.3096256E+001, 4.3271816E+001, 1.8181895E+000, 6.4638495E+002, 2.5693662E+003,-1.2923785E+003, 1.8888225E+002
 7.0208074E+001, 4.2421161E+002, 9.6219275E-003, 2.7536594E+001, 4.9328667E+001, 2.3602805E+000, 6.9963361E+002, 3.2578638E+003,-1.6750801E+003, 2.1083800E+002
 7.0814570E+001, 4.2269464E+002, 1.2293451E-002, 3.0875805E+001, 5.4136440E+001, 3.0883605E+000, 7.6260400E+002, 3.5756958E+003,-1.7959720E+003, 2.2856009E+002
 7.1411846E+001, 3.7472806E+002, 1.4869913E-002, 3.3595127E+001, 5.6388783E+001, 4.0622277E+000, 7.8551270E+002, 3.4870171E+003,-1.8096665E+003, 2.3387456E+002
 7.2009971E+001, 4.2939474E+002, 1.6440291E-002, 2.5948948E+001, 4.9715099E+001, 2.2994511E+000, 6.9210858E+002, 3.4557537E+003,-1.7510626E+003, 2.1259291E+002
 7.2617775E+001, 5.3078992E+002, 8.6503094E-003, 1.3112334E+001, 4.1968861E+001, 4.8971438E-001, 6.1572742E+002, 2.2858396E+003,-1.0897426E+003, 1.9850978E+002
 7.3206450E+001, 4.6405527E+002, 5.5171456E-003, 9.5497303E+000, 2.9995209E+001, 4.7158015E-001, 5.4750403E+002, 2.0562246E+003,-8.5646954E+002, 1.4131554E+002
 7.3815466E+001, 5.1911304E+002, 6.9162827E-003, 1.4170671E+001, 4.1569050E+001, 8.6187226E-001, 6.4484033E+002, 3.0102249E+003,-1.4632067E+003, 1.8675475E+002
